L Sticks
 573.8500  0.00029
 574.0300  0.00031
 574.0900  0.00102
 574.3600  0.00000
 574.4800  0.00021
 574.9000  0.00026
 575.2300  0.00382
 575.2600  0.00433
 575.3200  0.00034
 575.3500  0.00283
 575.5000  0.00921
 575.5900  0.00136
 575.7400  0.01215
 575.8600  0.00650
 575.8900  0.00257
 575.9200  0.00504
 575.9500  0.00459
 575.9800  0.00685
 576.0400  0.00030
 576.2500  0.00341
 576.2800  0.00982
 576.3700  0.03071
 576.4000  0.02999
 576.4600  0.05019
 576.5200  0.00067
 576.5500  0.01816
 576.5800  0.01803
 576.6700  0.00028
 576.7600  0.00513
 576.9400  0.00040
 577.0000  0.00015
 577.0300  0.00581
 577.0900  0.00641
 577.1200  0.00027
 577.1500  0.00023
 577.1800  0.00317
 577.2100  0.00451
 577.2400  0.00050
 577.3000  0.00383
 577.3300  0.01242
 577.3600  0.01774
 577.3900  0.00180
 577.4200  0.01633
 577.4500  0.00378
 577.4800  0.02283
 577.5700  0.04300
 577.6000  0.01269
 577.6300  0.01814
 577.6900  0.00011
 577.7200  0.00399
 577.7500  0.01879
 577.7800  0.01958
 577.8100  0.01448
 577.8400  0.00720
 577.8700  0.01846
 577.9000  0.00543
 577.9600  0.03161
 577.9900  0.00513
 578.0500  0.00116
 578.0800  0.01246
 578.1100  0.02828
 578.1700  0.02331
 578.2000  0.01625
 578.3500  0.03676
 578.4400  0.02304
 578.5000  0.00258
 578.5600  0.01199
 578.5900  0.02070
 578.6200  0.01048
 578.6800  0.01373
 578.7700  0.00870
 578.8000  0.00498
 578.8600  0.01954
 578.8900  0.05175
 578.9200  0.01317
 578.9500  0.00103
 578.9800  0.00671
 579.0400  0.01211
 579.0700  0.01444
 579.1000  0.02535
 579.1600  0.00422
 579.2200  0.00734
 579.2500  0.00073
 579.2800  0.00001
 579.3100  0.00442
 579.3400  0.01258
 579.3700  0.00054
 579.4000  0.02728
 579.4600  0.00076
 579.5200  0.00187
 579.5500  0.00648
 579.6400  0.00233
 579.6700  0.00116
 579.7300  0.00666
 579.7600  0.00027
 579.7900  0.00755
 579.8200  0.00084
 579.8500  0.00077
 579.8800  0.00423
 579.9400  0.00190
 579.9700  0.00031
 580.0300  0.00005
 580.0900  0.00406
 580.1200  0.00384
 580.1500  0.00461
 580.1800  0.00204
 580.2100  0.00001
 580.2700  0.00017
 580.3300  0.00080
 580.3600  0.00000
 580.3900  0.00027
 580.4200  0.00216
 580.4800  0.00236
 580.5400  0.00059
 580.6000  0.00469
 580.6300  0.00067
 580.6900  0.00443
 580.7500  0.00088
 580.7800  0.00035
 580.8100  0.00008
 580.8400  0.00225
 580.8700  0.01032
 580.9000  0.00017
 580.9300  0.00025
 580.9600  0.00018
 580.9900  0.00028
 581.0800  0.00043
 581.1100  0.00499
 581.1400  0.00060
 581.2000  0.00288
 581.2600  0.01131
 581.2900  0.00030
 581.3500  0.00071
 581.4100  0.00044
 581.4400  0.00294
 581.5000  0.00029
 581.5600  0.00007
 581.5900  0.00135
 581.6200  0.00021
 581.7700  0.00299
 581.8600  0.00059
 581.9800  0.00008
 582.0400  0.00006
 582.0700  0.00145
 582.1000  0.00025
 582.1300  0.01003
 582.1600  0.00076
 582.2200  0.00306
 582.2800  0.00036
 582.3400  0.00009
 582.3700  0.00061
 582.4000  0.00001
 582.4300  0.00035
 582.4600  0.00050
 582.5500  0.00397
 582.5800  0.00019
 582.6100  0.00118
 582.6400  0.00008
 582.6700  0.00116
 582.7600  0.00009
 582.7900  0.00100
 582.8500  0.00088
 582.8800  0.00021
 583.0300  0.00157
 583.0600  0.00126
 583.0900  0.00035
 583.1800  0.00046
 583.2700  0.00055
 583.3000  0.00042
 583.3300  0.00000
 583.4200  0.00035
 583.4800  0.00005
 583.5100  0.00206
 583.5700  0.00168
 583.6000  0.00001
 583.6300  0.00017
 583.7200  0.00047
 583.7500  0.00044
 583.8100  0.00053
 583.8700  0.00194
 583.9000  0.01092
 584.0200  0.00711
 584.1100  0.00499
 584.1400  0.00483
 584.1700  0.00020
 584.2000  0.00403
 584.2600  0.00404
 584.3200  0.00153
 584.4100  0.00134
 584.4400  0.00001
 584.5000  0.00256
 584.5900  0.00277
 584.6200  0.01602
 584.7400  0.01850
 584.8000  0.00428
 584.8300  0.00183
 584.9200  0.01572
 584.9500  0.01582
 584.9800  0.01038
 585.0700  0.02669
 585.1000  0.00107
 585.1900  0.00120
 585.2200  0.03883
 585.2500  0.03258
 585.2800  0.00984
 585.3100  0.02526
 585.3400  0.07547
 585.4600  0.03000
 585.4900  0.00064
 585.5500  0.00198
 585.6100  0.00023
 585.7900  0.00538
 585.8800  0.02782
 585.9100  0.01037
 585.9700  0.00367
 586.0000  0.00419
 586.1200  0.00064
 586.1500  0.00066
 586.3300  0.00177
 586.3900  0.02892
 586.4200  0.00812
 586.5100  0.01530
 586.5400  0.00990
 586.6000  0.00849
 586.6600  0.00016
 586.6900  0.00636
 586.7200  0.00048
 586.7500  0.01415
 586.9000  0.00264
 586.9300  0.00708
 587.0200  0.00064
 587.0500  0.00061
 587.0800  0.00447
 587.1700  0.00007
 587.2300  0.01979
 587.2600  0.00014
 587.3200  0.00169
 587.3500  0.01153
 587.3800  0.02194
 587.4100  0.00969
 587.4400  0.00079
 587.5900  0.06243
 587.6200  0.00600
 587.6800  0.00169
 587.7100  0.00029
 587.7400  0.03154
 587.8600  0.00091
 587.8900  0.00759
 587.9200  0.00917
 588.0400  0.00835
 588.0700  0.00056
 588.2200  0.00718
 588.2500  0.00605
 588.2800  0.00078
 588.4300  0.00231
 588.4900  0.00207
 588.5500  0.00006
 588.5800  0.00011
 588.6100  0.00081
 588.7000  0.00127
 588.7300  0.00190
 588.7600  0.00004
 588.8800  0.00343
 588.9100  0.00019
 589.0000  0.00153
 589.0300  0.00128
 589.0600  0.00130
 589.0900  0.00117
 589.1800  0.00076
 589.2400  0.00130
 589.3600  0.00030
 589.4200  0.00057
 589.5100  0.00002
 589.5400  0.00052
 589.6300  0.00001
 589.6600  0.00054
 589.7500  0.00003
 589.8400  0.00043
 589.9300  0.00174
 589.9600  0.00041
 589.9900  0.00076
 590.1400  0.00069
 590.2600  0.00012
 590.3800  0.00069
 590.4100  0.00010
 590.5000  0.00072
 590.5600  0.00006
 590.6200  0.00088
 590.7700  0.00016
 590.8600  0.00021
 590.9200  0.00015
 591.0700  0.00006
 591.2500  0.00058
 591.2800  0.00070
 591.4000  0.00001
 591.4300  0.00002
 591.5500  0.00052
 591.7000  0.00043
 591.8800  0.00028
 591.9400  0.00001
 592.0000  0.00036
 592.1500  0.00004
 592.1800  0.00006
 592.2700  0.00013
 592.3900  0.00005
 592.4200  0.00010
 592.5700  0.00028
 592.6900  0.00021
 592.8100  0.00001
 592.8400  0.00005
 592.8700  0.00010
 592.9300  0.00003
 593.1100  0.00000
 593.1400  0.00001
 593.2600  0.00018
 593.3500  0.00017
 593.4700  0.00002
 593.8000  0.00002
 593.9800  0.00002
 594.2200  0.00051
 594.6100  0.00008
 594.7300  0.00002
 595.0600  0.00000
 595.6900  0.00005
 596.4400  0.00001
R Sticks
 573.8500  0.00029
 574.0300  0.00031
 574.0900  0.00102
 574.3600  0.00000
 574.4800  0.00021
 574.9000  0.00026
 575.2300  0.00382
 575.2600  0.00433
 575.3200  0.00034
 575.3500  0.00283
 575.5000  0.00921
 575.5900  0.00136
 575.7400  0.01215
 575.8600  0.00650
 575.8900  0.00257
 575.9200  0.00504
 575.9500  0.00459
 575.9800  0.00685
 576.0400  0.00030
 576.2500  0.00341
 576.2800  0.00982
 576.3700  0.03071
 576.4000  0.02999
 576.4600  0.05019
 576.5200  0.00067
 576.5500  0.01816
 576.5800  0.01803
 576.6700  0.00028
 576.7600  0.00513
 576.9400  0.00040
 577.0000  0.00015
 577.0300  0.00581
 577.0900  0.00641
 577.1200  0.00027
 577.1500  0.00023
 577.1800  0.00317
 577.2100  0.00451
 577.2400  0.00050
 577.3000  0.00383
 577.3300  0.01242
 577.3600  0.01774
 577.3900  0.00180
 577.4200  0.01633
 577.4500  0.00378
 577.4800  0.02283
 577.5700  0.04300
 577.6000  0.01269
 577.6300  0.01814
 577.6900  0.00011
 577.7200  0.00399
 577.7500  0.01879
 577.7800  0.01958
 577.8100  0.01448
 577.8400  0.00720
 577.8700  0.01846
 577.9000  0.00543
 577.9600  0.03161
 577.9900  0.00513
 578.0500  0.00116
 578.0800  0.01246
 578.1100  0.02828
 578.1700  0.02331
 578.2000  0.01625
 578.3500  0.03676
 578.4400  0.02304
 578.5000  0.00258
 578.5600  0.01199
 578.5900  0.02070
 578.6200  0.01048
 578.6800  0.01373
 578.7700  0.00870
 578.8000  0.00498
 578.8600  0.01954
 578.8900  0.05175
 578.9200  0.01317
 578.9500  0.00103
 578.9800  0.00671
 579.0400  0.01211
 579.0700  0.01444
 579.1000  0.02535
 579.1600  0.00422
 579.2200  0.00734
 579.2500  0.00073
 579.2800  0.00001
 579.3100  0.00442
 579.3400  0.01258
 579.3700  0.00054
 579.4000  0.02728
 579.4600  0.00076
 579.5200  0.00187
 579.5500  0.00648
 579.6400  0.00233
 579.6700  0.00116
 579.7300  0.00666
 579.7600  0.00027
 579.7900  0.00755
 579.8200  0.00084
 579.8500  0.00077
 579.8800  0.00423
 579.9400  0.00190
 579.9700  0.00031
 580.0300  0.00005
 580.0900  0.00406
 580.1200  0.00384
 580.1500  0.00461
 580.1800  0.00204
 580.2100  0.00001
 580.2700  0.00017
 580.3300  0.00080
 580.3600  0.00000
 580.3900  0.00027
 580.4200  0.00216
 580.4800  0.00236
 580.5400  0.00059
 580.6000  0.00469
 580.6300  0.00067
 580.6900  0.00443
 580.7500  0.00088
 580.7800  0.00035
 580.8100  0.00008
 580.8400  0.00225
 580.8700  0.01032
 580.9000  0.00017
 580.9300  0.00025
 580.9600  0.00018
 580.9900  0.00028
 581.0800  0.00043
 581.1100  0.00499
 581.1400  0.00060
 581.2000  0.00288
 581.2600  0.01131
 581.2900  0.00030
 581.3500  0.00071
 581.4100  0.00044
 581.4400  0.00294
 581.5000  0.00029
 581.5600  0.00007
 581.5900  0.00135
 581.6200  0.00021
 581.7700  0.00299
 581.8600  0.00059
 581.9800  0.00008
 582.0400  0.00006
 582.0700  0.00145
 582.1000  0.00025
 582.1300  0.01003
 582.1600  0.00076
 582.2200  0.00306
 582.2800  0.00036
 582.3400  0.00009
 582.3700  0.00061
 582.4000  0.00001
 582.4300  0.00035
 582.4600  0.00050
 582.5500  0.00397
 582.5800  0.00019
 582.6100  0.00118
 582.6400  0.00008
 582.6700  0.00116
 582.7600  0.00009
 582.7900  0.00100
 582.8500  0.00088
 582.8800  0.00021
 583.0300  0.00157
 583.0600  0.00126
 583.0900  0.00035
 583.1800  0.00046
 583.2700  0.00055
 583.3000  0.00042
 583.3300  0.00000
 583.4200  0.00035
 583.4800  0.00005
 583.5100  0.00206
 583.5700  0.00168
 583.6000  0.00001
 583.6300  0.00017
 583.7200  0.00047
 583.7500  0.00044
 583.8100  0.00053
 583.8700  0.00194
 583.9000  0.01092
 584.0200  0.00711
 584.1100  0.00499
 584.1400  0.00483
 584.1700  0.00020
 584.2000  0.00403
 584.2600  0.00404
 584.3200  0.00153
 584.4100  0.00134
 584.4400  0.00001
 584.5000  0.00256
 584.5900  0.00277
 584.6200  0.01602
 584.7400  0.01850
 584.8000  0.00428
 584.8300  0.00183
 584.9200  0.01572
 584.9500  0.01582
 584.9800  0.01038
 585.0700  0.02669
 585.1000  0.00107
 585.1900  0.00120
 585.2200  0.03883
 585.2500  0.03258
 585.2800  0.00984
 585.3100  0.02526
 585.3400  0.07547
 585.4600  0.03000
 585.4900  0.00064
 585.5500  0.00198
 585.6100  0.00023
 585.7900  0.00538
 585.8800  0.02782
 585.9100  0.01037
 585.9700  0.00367
 586.0000  0.00419
 586.1200  0.00064
 586.1500  0.00066
 586.3300  0.00177
 586.3900  0.02892
 586.4200  0.00812
 586.5100  0.01530
 586.5400  0.00990
 586.6000  0.00849
 586.6600  0.00016
 586.6900  0.00636
 586.7200  0.00048
 586.7500  0.01415
 586.9000  0.00264
 586.9300  0.00708
 587.0200  0.00064
 587.0500  0.00061
 587.0800  0.00447
 587.1700  0.00007
 587.2300  0.01979
 587.2600  0.00014
 587.3200  0.00169
 587.3500  0.01153
 587.3800  0.02194
 587.4100  0.00969
 587.4400  0.00079
 587.5900  0.06243
 587.6200  0.00600
 587.6800  0.00169
 587.7100  0.00029
 587.7400  0.03154
 587.8600  0.00091
 587.8900  0.00759
 587.9200  0.00917
 588.0400  0.00835
 588.0700  0.00056
 588.2200  0.00718
 588.2500  0.00605
 588.2800  0.00078
 588.4300  0.00231
 588.4900  0.00207
 588.5500  0.00006
 588.5800  0.00011
 588.6100  0.00081
 588.7000  0.00127
 588.7300  0.00190
 588.7600  0.00004
 588.8800  0.00343
 588.9100  0.00019
 589.0000  0.00153
 589.0300  0.00128
 589.0600  0.00130
 589.0900  0.00117
 589.1800  0.00076
 589.2400  0.00130
 589.3600  0.00030
 589.4200  0.00057
 589.5100  0.00002
 589.5400  0.00052
 589.6300  0.00001
 589.6600  0.00054
 589.7500  0.00003
 589.8400  0.00043
 589.9300  0.00174
 589.9600  0.00041
 589.9900  0.00076
 590.1400  0.00069
 590.2600  0.00012
 590.3800  0.00069
 590.4100  0.00010
 590.5000  0.00072
 590.5600  0.00006
 590.6200  0.00088
 590.7700  0.00016
 590.8600  0.00021
 590.9200  0.00015
 591.0700  0.00006
 591.2500  0.00058
 591.2800  0.00070
 591.4000  0.00001
 591.4300  0.00002
 591.5500  0.00052
 591.7000  0.00043
 591.8800  0.00028
 591.9400  0.00001
 592.0000  0.00036
 592.1500  0.00004
 592.1800  0.00006
 592.2700  0.00013
 592.3900  0.00005
 592.4200  0.00010
 592.5700  0.00028
 592.6900  0.00021
 592.8100  0.00001
 592.8400  0.00005
 592.8700  0.00010
 592.9300  0.00003
 593.1100  0.00000
 593.1400  0.00001
 593.2600  0.00018
 593.3500  0.00017
 593.4700  0.00002
 593.8000  0.00002
 593.9800  0.00002
 594.2200  0.00051
 594.6100  0.00008
 594.7300  0.00002
 595.0600  0.00000
 595.6900  0.00005
 596.4400  0.00001
Z Sticks
 573.8500  0.00029
 574.0300  0.00031
 574.0900  0.00102
 574.3600  0.00000
 574.4800  0.00021
 574.9000  0.00026
 575.2300  0.00382
 575.2600  0.00433
 575.3200  0.00034
 575.3500  0.00283
 575.5000  0.00921
 575.5900  0.00136
 575.7400  0.01215
 575.8600  0.00650
 575.8900  0.00257
 575.9200  0.00504
 575.9500  0.00459
 575.9800  0.00685
 576.0400  0.00030
 576.2500  0.00341
 576.2800  0.00982
 576.3700  0.03072
 576.4000  0.02999
 576.4600  0.05019
 576.5200  0.00067
 576.5500  0.01816
 576.5800  0.01804
 576.6700  0.00028
 576.7600  0.00513
 576.9400  0.00039
 577.0000  0.00015
 577.0300  0.00581
 577.0900  0.00641
 577.1200  0.00027
 577.1500  0.00024
 577.1800  0.00317
 577.2100  0.00451
 577.2400  0.00050
 577.3000  0.00384
 577.3300  0.01242
 577.3600  0.01774
 577.3900  0.00180
 577.4200  0.01633
 577.4500  0.00378
 577.4800  0.02283
 577.5700  0.04300
 577.6000  0.01269
 577.6300  0.01814
 577.6900  0.00011
 577.7200  0.00399
 577.7500  0.01879
 577.7800  0.01958
 577.8100  0.01448
 577.8400  0.00720
 577.8700  0.01846
 577.9000  0.00543
 577.9600  0.03161
 577.9900  0.00513
 578.0500  0.00116
 578.0800  0.01246
 578.1100  0.02829
 578.1700  0.02331
 578.2000  0.01625
 578.3500  0.03676
 578.4400  0.02303
 578.5000  0.00258
 578.5600  0.01199
 578.5900  0.02070
 578.6200  0.01048
 578.6800  0.01373
 578.7700  0.00870
 578.8000  0.00498
 578.8600  0.01954
 578.8900  0.05175
 578.9200  0.01317
 578.9500  0.00103
 578.9800  0.00671
 579.0400  0.01211
 579.0700  0.01444
 579.1000  0.02535
 579.1600  0.00421
 579.2200  0.00734
 579.2500  0.00073
 579.2800  0.00001
 579.3100  0.00442
 579.3400  0.01258
 579.3700  0.00054
 579.4000  0.02728
 579.4600  0.00076
 579.5200  0.00188
 579.5500  0.00648
 579.6400  0.00233
 579.6700  0.00116
 579.7300  0.00666
 579.7600  0.00027
 579.7900  0.00755
 579.8200  0.00084
 579.8500  0.00077
 579.8800  0.00423
 579.9400  0.00190
 579.9700  0.00031
 580.0300  0.00005
 580.0900  0.00406
 580.1200  0.00384
 580.1500  0.00461
 580.1800  0.00204
 580.2100  0.00001
 580.2700  0.00017
 580.3300  0.00080
 580.3600  0.00000
 580.3900  0.00027
 580.4200  0.00216
 580.4800  0.00236
 580.5400  0.00059
 580.6000  0.00469
 580.6300  0.00067
 580.6900  0.00444
 580.7500  0.00088
 580.7800  0.00035
 580.8100  0.00008
 580.8400  0.00225
 580.8700  0.01032
 580.9000  0.00017
 580.9300  0.00025
 580.9600  0.00018
 580.9900  0.00028
 581.0200  0.00000
 581.0800  0.00043
 581.1100  0.00499
 581.1400  0.00060
 581.2000  0.00288
 581.2600  0.01131
 581.2900  0.00030
 581.3500  0.00071
 581.4100  0.00044
 581.4400  0.00294
 581.5000  0.00029
 581.5600  0.00007
 581.5900  0.00135
 581.6200  0.00021
 581.7700  0.00300
 581.8600  0.00059
 581.9800  0.00008
 582.0400  0.00007
 582.0700  0.00145
 582.1000  0.00025
 582.1300  0.01003
 582.1600  0.00076
 582.2200  0.00306
 582.2800  0.00036
 582.3400  0.00009
 582.3700  0.00061
 582.4000  0.00001
 582.4300  0.00035
 582.4600  0.00050
 582.5500  0.00397
 582.5800  0.00019
 582.6100  0.00118
 582.6400  0.00008
 582.6700  0.00115
 582.7600  0.00008
 582.7900  0.00100
 582.8500  0.00088
 582.8800  0.00021
 583.0300  0.00157
 583.0600  0.00126
 583.0900  0.00035
 583.1800  0.00046
 583.2700  0.00055
 583.3000  0.00042
 583.3300  0.00000
 583.4200  0.00035
 583.4800  0.00005
 583.5100  0.00207
 583.5700  0.00168
 583.6000  0.00001
 583.6300  0.00017
 583.7200  0.00047
 583.7500  0.00044
 583.8100  0.00053
 583.8700  0.00194
 583.9000  0.01092
 584.0200  0.00711
 584.1100  0.00499
 584.1400  0.00483
 584.1700  0.00019
 584.2000  0.00403
 584.2600  0.00404
 584.3200  0.00153
 584.4100  0.00134
 584.4400  0.00001
 584.5000  0.00256
 584.5900  0.00277
 584.6200  0.01602
 584.7400  0.01850
 584.8000  0.00428
 584.8300  0.00183
 584.9200  0.01572
 584.9500  0.01581
 584.9800  0.01038
 585.0700  0.02669
 585.1000  0.00107
 585.1900  0.00120
 585.2200  0.03883
 585.2500  0.03258
 585.2800  0.00984
 585.3100  0.02526
 585.3400  0.07547
 585.4600  0.03000
 585.4900  0.00064
 585.5200  0.00000
 585.5500  0.00198
 585.6100  0.00023
 585.7900  0.00538
 585.8800  0.02782
 585.9100  0.01037
 585.9700  0.00367
 586.0000  0.00419
 586.1200  0.00064
 586.1500  0.00066
 586.3300  0.00177
 586.3900  0.02892
 586.4200  0.00811
 586.5100  0.01530
 586.5400  0.00990
 586.6000  0.00849
 586.6600  0.00016
 586.6900  0.00635
 586.7200  0.00048
 586.7500  0.01415
 586.9000  0.00264
 586.9300  0.00708
 587.0200  0.00064
 587.0500  0.00061
 587.0800  0.00447
 587.1700  0.00007
 587.2300  0.01979
 587.2600  0.00014
 587.3200  0.00169
 587.3500  0.01153
 587.3800  0.02194
 587.4100  0.00969
 587.4400  0.00079
 587.5900  0.06243
 587.6200  0.00600
 587.6800  0.00169
 587.7100  0.00029
 587.7400  0.03154
 587.8600  0.00091
 587.8900  0.00759
 587.9200  0.00917
 588.0400  0.00835
 588.0700  0.00056
 588.2200  0.00719
 588.2500  0.00604
 588.2800  0.00078
 588.4300  0.00231
 588.4900  0.00207
 588.5500  0.00006
 588.5800  0.00011
 588.6100  0.00080
 588.7000  0.00127
 588.7300  0.00190
 588.7600  0.00004
 588.8800  0.00343
 588.9100  0.00019
 589.0000  0.00153
 589.0300  0.00128
 589.0600  0.00130
 589.0900  0.00117
 589.1800  0.00075
 589.2400  0.00130
 589.3600  0.00030
 589.4200  0.00056
 589.5100  0.00002
 589.5400  0.00052
 589.6300  0.00001
 589.6600  0.00054
 589.7500  0.00003
 589.8400  0.00043
 589.9300  0.00174
 589.9600  0.00041
 589.9900  0.00076
 590.1400  0.00069
 590.2600  0.00012
 590.3800  0.00069
 590.4100  0.00010
 590.5000  0.00072
 590.5600  0.00006
 590.6200  0.00088
 590.7700  0.00016
 590.8600  0.00021
 590.9200  0.00016
 591.0700  0.00006
 591.2500  0.00058
 591.2800  0.00070
 591.4000  0.00001
 591.4300  0.00002
 591.5500  0.00052
 591.7000  0.00043
 591.8800  0.00029
 591.9400  0.00001
 592.0000  0.00037
 592.1500  0.00004
 592.1800  0.00006
 592.2700  0.00013
 592.3900  0.00005
 592.4200  0.00010
 592.5700  0.00028
 592.6900  0.00021
 592.8100  0.00001
 592.8400  0.00005
 592.8700  0.00010
 592.9300  0.00003
 593.1100  0.00000
 593.1400  0.00000
 593.2600  0.00018
 593.3500  0.00017
 593.4700  0.00002
 593.8000  0.00002
 593.9800  0.00001
 594.2200  0.00051
 594.6100  0.00009
 594.7300  0.00002
 595.0600  0.00000
 595.6900  0.00005
 596.4400  0.00001
 598.7800  0.00000
